 frequency   noise1.onoise_spectrum frequency   noise1.inoise_spectrum
 1.0000e+00  4.1997e-09  1.0000e+00  1.0547e-04 
 1.2589e+00  4.1709e-09  1.2589e+00  1.0475e-04 
 1.5849e+00  4.1479e-09  1.5849e+00  1.0417e-04 
 1.9953e+00  4.1296e-09  1.9953e+00  1.0371e-04 
 2.5119e+00  4.1149e-09  2.5119e+00  1.0334e-04 
 3.1623e+00  4.1032e-09  3.1623e+00  1.0305e-04 
 3.9811e+00  4.0940e-09  3.9811e+00  1.0281e-04 
 5.0119e+00  4.0866e-09  5.0119e+00  1.0263e-04 
 6.3096e+00  4.0807e-09  6.3096e+00  1.0248e-04 
 7.9433e+00  4.0760e-09  7.9433e+00  1.0236e-04 
 1.0000e+01  4.0723e-09  1.0000e+01  1.0227e-04 
 1.2589e+01  4.0693e-09  1.2589e+01  1.0219e-04 
 1.5849e+01  4.0670e-09  1.5849e+01  1.0214e-04 
 1.9953e+01  4.0651e-09  1.9953e+01  1.0209e-04 
 2.5119e+01  4.0636e-09  2.5119e+01  1.0205e-04 
 3.1623e+01  4.0624e-09  3.1623e+01  1.0202e-04 
 3.9811e+01  4.0615e-09  3.9811e+01  1.0200e-04 
 5.0119e+01  4.0608e-09  5.0119e+01  1.0198e-04 
 6.3096e+01  4.0602e-09  6.3096e+01  1.0196e-04 
 7.9433e+01  4.0597e-09  7.9433e+01  1.0195e-04 
 1.0000e+02  4.0593e-09  1.0000e+02  1.0194e-04 
 1.2589e+02  4.0590e-09  1.2589e+02  1.0194e-04 
 1.5849e+02  4.0588e-09  1.5849e+02  1.0193e-04 
 1.9953e+02  4.0586e-09  1.9953e+02  1.0192e-04 
 2.5119e+02  4.0585e-09  2.5119e+02  1.0192e-04 
 3.1623e+02  4.0583e-09  3.1623e+02  1.0192e-04 
 3.9811e+02  4.0582e-09  3.9811e+02  1.0192e-04 
 5.0119e+02  4.0582e-09  5.0119e+02  1.0191e-04 
 6.3096e+02  4.0581e-09  6.3096e+02  1.0191e-04 
 7.9433e+02  4.0581e-09  7.9433e+02  1.0191e-04 
 1.0000e+03  4.0580e-09  1.0000e+03  1.0191e-04 
 1.2589e+03  4.0580e-09  1.2589e+03  1.0191e-04 
 1.5849e+03  4.0580e-09  1.5849e+03  1.0191e-04 
 1.9953e+03  4.0579e-09  1.9953e+03  1.0191e-04 
 2.5119e+03  4.0579e-09  2.5119e+03  1.0191e-04 
 3.1623e+03  4.0579e-09  3.1623e+03  1.0191e-04 
 3.9811e+03  4.0579e-09  3.9811e+03  1.0191e-04 
 5.0119e+03  4.0579e-09  5.0119e+03  1.0191e-04 
 6.3096e+03  4.0579e-09  6.3096e+03  1.0191e-04 
 7.9433e+03  4.0579e-09  7.9433e+03  1.0191e-04 
 1.0000e+04  4.0579e-09  1.0000e+04  1.0191e-04 
 1.2589e+04  4.0579e-09  1.2589e+04  1.0191e-04 
 1.5849e+04  4.0579e-09  1.5849e+04  1.0191e-04 
 1.9953e+04  4.0579e-09  1.9953e+04  1.0191e-04 
 2.5119e+04  4.0579e-09  2.5119e+04  1.0191e-04 
 3.1623e+04  4.0579e-09  3.1623e+04  1.0191e-04 
 3.9811e+04  4.0579e-09  3.9811e+04  1.0191e-04 
 5.0119e+04  4.0579e-09  5.0119e+04  1.0191e-04 
 6.3096e+04  4.0579e-09  6.3096e+04  1.0191e-04 
 7.9433e+04  4.0579e-09  7.9433e+04  1.0191e-04 
 1.0000e+05  4.0579e-09  1.0000e+05  1.0191e-04 
 1.2589e+05  4.0579e-09  1.2589e+05  1.0191e-04 
 1.5849e+05  4.0579e-09  1.5849e+05  1.0191e-04 
 1.9953e+05  4.0579e-09  1.9953e+05  1.0190e-04 
 2.5119e+05  4.0579e-09  2.5119e+05  1.0190e-04 
 3.1623e+05  4.0579e-09  3.1623e+05  1.0190e-04 
 3.9811e+05  4.0579e-09  3.9811e+05  1.0190e-04 
 5.0119e+05  4.0579e-09  5.0119e+05  1.0189e-04 
 6.3096e+05  4.0579e-09  6.3096e+05  1.0188e-04 
 7.9433e+05  4.0579e-09  7.9433e+05  1.0187e-04 
 1.0000e+06  4.0579e-09  1.0000e+06  1.0184e-04 
 1.2589e+06  4.0579e-09  1.2589e+06  1.0181e-04 
 1.5849e+06  4.0579e-09  1.5849e+06  1.0175e-04 
 1.9953e+06  4.0579e-09  1.9953e+06  1.0165e-04 
 2.5119e+06  4.0579e-09  2.5119e+06  1.0151e-04 
 3.1623e+06  4.0579e-09  3.1623e+06  1.0128e-04 
 3.9811e+06  4.0579e-09  3.9811e+06  1.0092e-04 
 5.0119e+06  4.0579e-09  5.0119e+06  1.0036e-04 
 6.3096e+06  4.0578e-09  6.3096e+06  9.9512e-05 
 7.9433e+06  4.0578e-09  7.9433e+06  9.8243e-05 
 1.0000e+07  4.0578e-09  1.0000e+07  9.6401e-05 
 1.2589e+07  4.0578e-09  1.2589e+07  9.3832e-05 
 1.5849e+07  4.0577e-09  1.5849e+07  9.0425e-05 
 1.9953e+07  4.0576e-09  1.9953e+07  8.6171e-05 
 2.5119e+07  4.0574e-09  2.5119e+07  8.1165e-05 
 3.1623e+07  4.0571e-09  3.1623e+07  7.5548e-05 
 3.9811e+07  4.0567e-09  3.9811e+07  6.9426e-05 
 5.0119e+07  4.0559e-09  5.0119e+07  6.2844e-05 
 6.3096e+07  4.0548e-09  6.3096e+07  5.5859e-05 
 7.9433e+07  4.0529e-09  7.9433e+07  4.8643e-05 
 1.0000e+08  4.0499e-09  1.0000e+08  4.1485e-05 
 1.2589e+08  4.0453e-09  1.2589e+08  3.4720e-05 
 1.5849e+08  4.0379e-09  1.5849e+08  2.8611e-05 
 1.9953e+08  4.0263e-09  1.9953e+08  2.3301e-05 
 2.5119e+08  4.0080e-09  2.5119e+08  1.8817e-05 
 3.1623e+08  3.9797e-09  3.1623e+08  1.5109e-05 
 3.9811e+08  3.9359e-09  3.9811e+08  1.2085e-05 
 5.0119e+08  3.8695e-09  5.0119e+08  9.6426e-06 
 6.3096e+08  3.7707e-09  6.3096e+08  7.6811e-06 
 7.9433e+08  3.6285e-09  7.9433e+08  6.1123e-06 
 1.0000e+09  3.4329e-09  1.0000e+09  4.8607e-06 
 1.2589e+09  3.1787e-09  1.2589e+09  3.8638e-06 
 1.5849e+09  2.8708e-09  1.5849e+09  3.0705e-06 
 1.9953e+09  2.5255e-09  1.9953e+09  2.4397e-06 
 2.5119e+09  2.1669e-09  2.5119e+09  1.9383e-06 
 3.1623e+09  1.8196e-09  3.1623e+09  1.5398e-06 
 3.9811e+09  1.5022e-09  3.9811e+09  1.2232e-06 
 5.0119e+09  1.2246e-09  5.0119e+09  9.7166e-07 
 6.3096e+09  9.8949e-10  6.3096e+09  7.7184e-07 
 7.9433e+09  7.9474e-10  7.9433e+09  6.1310e-07 
 1.0000e+10  6.3580e-10  1.0000e+10  4.8701e-07 
